time (s), delta (m), mass (kg), vol (m3), Tsurf (k), Tcore (k), MLR(kg/m3/s)
1,0.0125,17.0988,0.0125,348.083,300,0.0034153
2,0.0124998,17.0985,0.0124998,389.116,299.999,0.0495627
3,0.0124983,17.0949,0.0124981,417.625,299.996,0.275934
4,0.0124937,17.0855,0.0124933,436.278,299.992,0.467903
5,0.012488,17.0742,0.0124877,455.908,299.987,0.447033
6,0.0124826,17.0634,0.0124823,475.106,299.983,0.443341
7,0.0124774,17.053,0.0124771,492.445,299.98,0.424089
8,0.0124723,17.0428,0.012472,508.094,299.976,0.406111
9,0.0124674,17.033,0.0124671,522.503,299.973,0.396808
10,0.0124626,17.0235,0.0124623,535.718,299.97,0.38242
11,0.012458,17.0143,0.0124577,547.949,299.967,0.371149
12,0.0124535,17.0054,0.0124532,559.301,299.964,0.362259
13,0.0124491,16.9965,0.0124488,569.764,299.955,0.356103
14,0.0124448,16.988,0.0124446,579.639,299.952,0.344245
15,0.0124406,16.9797,0.0124404,588.905,299.95,0.336202
16,0.0124365,16.9715,0.0124363,597.616,299.948,0.330914
17,0.0124325,16.9634,0.0124322,605.811,299.945,0.325502
18,0.0124284,16.9555,0.0124282,613.539,299.943,0.321832
19,0.0124244,16.9476,0.0124242,620.837,299.941,0.318619
20,0.0124205,16.9398,0.0124202,627.738,299.939,0.316982
21,0.0124165,16.9321,0.0124162,634.273,299.936,0.316172
22,0.0124124,16.9243,0.0124122,640.468,299.934,0.316943
23,0.0124083,16.9165,0.0124081,646.345,299.932,0.31878
24,0.0124042,16.9086,0.0124039,651.925,299.93,0.322258
25,0.0123999,16.9006,0.0123997,657.226,299.927,0.32702
26,0.0123955,16.8925,0.0123953,662.264,299.925,0.33344
27,0.012391,16.8842,0.0123907,667.053,299.922,0.341344
28,0.0123863,16.8757,0.012386,671.607,299.919,0.350875
29,0.0123813,16.8669,0.012381,675.936,299.917,0.362027
30,0.0123761,16.8579,0.0123758,680.053,299.914,0.374751
31,0.0123707,16.8485,0.0123703,683.966,299.91,0.389118
32,0.0123649,16.8388,0.0123646,687.685,299.907,0.40501
33,0.0123589,16.8286,0.0123585,691.219,299.903,0.422434
34,0.0123524,16.818,0.012352,694.574,299.9,0.44131
35,0.0123456,16.8068,0.0123452,697.668,299.886,0.464139
36,0.0123384,16.7952,0.0123379,700.694,299.882,0.483445
37,0.0123308,16.7831,0.0123303,703.56,299.877,0.505416
38,0.0123227,16.7704,0.0123222,706.275,299.873,0.528954
39,0.0123142,16.7571,0.0123137,708.846,299.868,0.553624
40,0.0123052,16.7433,0.0123046,711.28,299.863,0.579172
41,0.0122958,16.7288,0.0122951,713.582,299.857,0.60542
42,0.0122858,16.7136,0.0122852,715.759,299.851,0.632227
43,0.0122753,16.6978,0.0122747,717.815,299.845,0.659451
44,0.0122644,16.6814,0.0122637,719.757,299.839,0.68696
45,0.0122529,16.6643,0.0122521,721.589,299.833,0.714635
46,0.0122409,16.6464,0.0122401,723.232,299.817,0.744545
47,0.0122283,16.628,0.0122275,724.864,299.81,0.770608
48,0.0122153,16.6089,0.0122145,726.401,299.803,0.797443
49,0.0122018,16.5891,0.012201,727.848,299.796,0.824421
50,0.0121879,16.5688,0.012187,729.21,299.789,0.851244
51,0.0121734,16.5478,0.0121725,730.491,299.782,0.877749
52,0.0121585,16.5262,0.0121575,731.698,299.775,0.903833
53,0.012143,16.504,0.0121421,732.748,299.758,0.93224
54,0.0121272,16.4812,0.0121262,733.821,299.75,0.955504
55,0.0121109,16.4578,0.0121098,734.829,299.743,0.979158
56,0.0120942,16.4339,0.0120931,735.778,299.736,1.00263
57,0.012077,16.4095,0.0120759,736.67,299.729,1.02567
58,0.0120595,16.3845,0.0120584,737.51,299.722,1.04816
59,0.0120416,16.3591,0.0120405,738.216,299.706,1.07268
60,0.0120233,16.3331,0.0120222,738.964,299.699,1.09239
61,0.0120047,16.3067,0.0120035,739.669,299.693,1.11228
62,0.0119857,16.2799,0.0119845,740.332,299.687,1.1319
63,0.0119664,16.2527,0.0119652,740.957,299.682,1.15109
64,0.0119468,16.225,0.0119456,741.46,299.667,1.17298
65,0.0119268,16.1969,0.0119256,742.021,299.662,1.1893
66,0.0119066,16.1685,0.0119054,742.55,299.658,1.206
67,0.0118861,16.1397,0.0118849,743.048,299.654,1.22257
68,0.0118654,16.1105,0.0118641,743.519,299.651,1.23881
69,0.0118444,16.0811,0.0118431,743.879,299.639,1.25739
70,0.0118231,16.0513,0.0118218,744.306,299.638,1.27131
71,0.0118016,16.0212,0.0118003,744.708,299.637,1.28552
72,0.0117799,15.9908,0.0117785,745.089,299.637,1.29962
73,0.011758,15.9601,0.0117566,745.449,299.637,1.31348
74,0.0117358,15.9292,0.0117344,745.709,299.629,1.32901
75,0.0117135,15.898,0.0117121,746.038,299.632,1.34117
76,0.011691,15.8666,0.0116895,746.349,299.635,1.35346
77,0.0116683,15.835,0.0116668,746.645,299.64,1.36565
78,0.0116454,15.8031,0.0116439,746.84,299.636,1.38028
79,0.0116223,15.771,0.0116209,747.114,299.643,1.39071
80,0.0115991,15.7387,0.0115977,747.372,299.651,1.4015
81,0.0115758,15.7062,0.0115743,747.618,299.66,1.41233
82,0.0115523,15.6735,0.0115508,747.852,299.671,1.42306
83,0.0115286,15.6406,0.0115271,747.993,299.672,1.43523
84,0.0115048,15.6076,0.0115033,748.211,299.686,1.44481
85,0.0114809,15.5744,0.0114794,748.417,299.7,1.45453
86,0.0114569,15.541,0.0114554,748.615,299.717,1.46424
87,0.0114327,15.5075,0.0114312,748.72,299.724,1.47563
88,0.0114084,15.4738,0.0114069,748.905,299.743,1.48426
89,0.011384,15.44,0.0113825,749.081,299.764,1.4931
90,0.0113596,15.4061,0.011358,749.249,299.786,1.50199
91,0.011335,15.372,0.0113334,749.326,299.8,1.51271
92,0.0113103,15.3378,0.0113087,749.485,299.826,1.52059
93,0.0112855,15.3034,0.0112839,749.636,299.854,1.52874
94,0.0112606,15.269,0.011259,749.781,299.883,1.53697
95,0.0112356,15.2344,0.0112341,749.835,299.904,1.54704
96,0.0112106,15.1998,0.011209,749.974,299.937,1.55438
97,0.0111854,15.165,0.0111839,750.105,299.971,1.56199
98,0.0111602,15.1301,0.0111587,750.231,300.008,1.5697
99,0.0111349,15.0952,0.0111334,750.267,300.036,1.57926
100,0.0111096,15.0601,0.011108,750.388,300.077,1.58616
101,0.0110841,15.0249,0.0110825,750.503,300.12,1.59334
102,0.0110586,14.9897,0.011057,750.614,300.165,1.60064
103,0.0110331,14.9544,0.0110315,750.635,300.201,1.60972
104,0.0110074,14.919,0.0110058,750.742,300.25,1.61629
105,0.0109817,14.8835,0.0109801,750.844,300.301,1.62315
106,0.010956,14.8479,0.0109544,750.942,300.354,1.63012
107,0.0109301,14.8123,0.0109285,750.95,300.399,1.63875
108,0.0109043,14.7766,0.0109027,751.045,300.457,1.6451
109,0.0108783,14.7408,0.0108767,751.136,300.516,1.6517
110,0.0108524,14.705,0.0108507,751.223,300.578,1.65843
111,0.0108263,14.669,0.0108247,751.221,300.632,1.66669
112,0.0108003,14.633,0.0107986,751.306,300.699,1.67286
113,0.0107741,14.597,0.0107725,751.387,300.768,1.67927
114,0.010748,14.5609,0.0107463,751.373,300.828,1.68808
115,0.0107217,14.5248,0.0107201,751.455,300.902,1.69372
116,0.0106955,14.4886,0.0106938,751.531,300.978,1.69977
117,0.0106692,14.4523,0.0106675,751.604,301.056,1.70603
118,0.0106428,14.416,0.0106412,751.583,301.126,1.71445
119,0.0106165,14.3797,0.0106148,751.657,301.209,1.72005
120,0.01059,14.3433,0.0105884,751.726,301.295,1.72601
121,0.0105636,14.3068,0.0105619,751.792,301.383,1.73217
122,0.0105371,14.2703,0.0105354,751.765,301.463,1.74026
123,0.0105106,14.2338,0.0105089,751.832,301.556,1.74585
124,0.010484,14.1972,0.0104823,751.894,301.651,1.75175
125,0.0104574,14.1606,0.0104557,751.954,301.749,1.75782
126,0.0104308,14.1239,0.0104291,751.923,301.839,1.7656
127,0.0104041,14.0872,0.0104025,751.983,301.942,1.7712
128,0.0103774,14.0505,0.0103758,752.04,302.048,1.77707
129,0.0103507,14.0138,0.0103491,751.996,302.145,1.7831
130,0.010324,13.9769,0.0103223,752.058,302.256,1.79063
131,0.0102972,13.9401,0.0102955,752.113,302.369,1.79625
132,0.0102704,13.9032,0.0102687,752.165,302.485,1.80211
133,0.0102436,13.8663,0.0102419,752.12,302.592,1.81015
134,0.0102168,13.8294,0.0102151,752.175,302.714,1.81544
135,0.0101899,13.7924,0.0101882,752.225,302.837,1.8211
136,0.010163,13.7554,0.0101613,752.273,302.964,1.82696
137,0.0101361,13.7184,0.0101344,752.225,303.082,1.83468
138,0.0101091,13.6814,0.0101075,752.275,303.213,1.84009
139,0.0100822,13.6443,0.0100805,752.321,303.348,1.84579
140,0.0100552,13.6072,0.0100535,752.365,303.485,1.85168
141,0.0100282,13.5701,0.0100265,752.315,303.613,1.85921
142,0.0100012,13.5329,0.00999952,752.36,303.756,1.8647
143,0.00997418,13.4958,0.00997249,752.402,303.901,1.87045
144,0.00994713,13.4586,0.00994544,752.343,304.037,1.87848
145,0.00992005,13.4214,0.00991836,752.39,304.188,1.88371
146,0.00989297,13.3841,0.00989128,752.432,304.341,1.8893
147,0.00986587,13.3469,0.00986418,752.471,304.497,1.89511
148,0.00983875,13.3096,0.00983706,752.411,304.644,1.90289
149,0.00981162,13.2723,0.00980992,752.453,304.806,1.90827
150,0.00978447,13.235,0.00978278,752.491,304.97,1.91395
151,0.00975732,13.1977,0.00975562,752.528,305.137,1.91984
152,0.00973014,13.1603,0.00972844,752.467,305.295,1.92742
153,0.00970295,13.123,0.00970125,752.505,305.468,1.93294
154,0.00967575,13.0856,0.00967405,752.54,305.643,1.93873
155,0.00964854,13.0482,0.00964684,752.47,305.809,1.94684
156,0.00962131,13.0108,0.00961961,752.512,305.99,1.95213
157,0.00959407,12.9734,0.00959237,752.547,306.174,1.95779
158,0.00956683,12.936,0.00956513,752.58,306.361,1.96368
159,0.00953957,12.8985,0.00953787,752.511,306.538,1.97153
160,0.0095123,12.861,0.00951059,752.547,306.731,1.97703
161,0.00948502,12.8236,0.00948332,752.579,306.926,1.98283
162,0.00945774,12.7861,0.00945603,752.61,307.124,1.98883
163,0.00943044,12.7486,0.00942873,752.541,307.312,1.99654
164,0.00940313,12.7111,0.00940142,752.573,307.516,2.00222
165,0.00937582,12.6736,0.00937411,752.604,307.723,2.00815
166,0.0093485,12.6361,0.00934679,752.525,307.92,2.0164
167,0.00932116,12.5985,0.00931945,752.562,308.132,2.02188
168,0.00929382,12.561,0.00929211,752.592,308.348,2.02772
169,0.00926648,12.5234,0.00926477,752.62,308.566,2.03379
170,0.00923912,12.4858,0.00923741,752.544,308.774,2.04182
171,0.00921176,12.4483,0.00921005,752.575,308.999,2.04753
172,0.00918439,12.4107,0.00918268,752.603,309.226,2.05355
173,0.00915702,12.3731,0.00915531,752.63,309.456,2.05977
174,0.00912964,12.3355,0.00912793,752.553,309.676,2.0677
175,0.00910225,12.2979,0.00910054,752.582,309.912,2.07361
176,0.00907486,12.2603,0.00907315,752.608,310.151,2.07979
177,0.00904747,12.2227,0.00904576,752.524,310.38,2.08819
178,0.00902007,12.1851,0.00901835,752.556,310.625,2.09399
179,0.00899266,12.1474,0.00899095,752.582,310.873,2.10011
180,0.00896525,12.1098,0.00896354,752.607,311.124,2.10647
181,0.00893784,12.0722,0.00893612,752.524,311.365,2.11473
182,0.00891041,12.0345,0.0089087,752.552,311.622,2.12076
183,0.00888299,11.9969,0.00888128,752.577,311.882,2.12709
184,0.00885557,11.9592,0.00885385,752.6,312.146,2.13362
185,0.00882813,11.9215,0.00882642,752.517,312.398,2.14183
186,0.0088007,11.8839,0.00879898,752.543,312.668,2.1481
187,0.00877326,11.8462,0.00877155,752.566,312.941,2.15462
188,0.00874582,11.8085,0.00874411,752.476,313.202,2.1633
189,0.00871837,11.7709,0.00871666,752.505,313.481,2.16948
190,0.00869093,11.7332,0.00868921,752.529,313.763,2.17598
191,0.00866348,11.6955,0.00866176,752.55,314.048,2.18271
192,0.00863603,11.6578,0.00863431,752.462,314.323,2.1913
193,0.00860857,11.6201,0.00860685,752.488,314.614,2.19775
194,0.00858111,11.5824,0.0085794,752.51,314.909,2.20449
195,0.00855366,11.5447,0.00855194,752.53,315.207,2.21143
196,0.00852619,11.507,0.00852447,752.442,315.494,2.22001
197,0.00849873,11.4693,0.00849701,752.466,315.798,2.22672
198,0.00847126,11.4316,0.00846955,752.486,316.105,2.23369
199,0.0084438,11.3939,0.00844208,752.392,316.402,2.24274
200,0.00841632,11.3562,0.00841461,752.418,316.716,2.24942
201,0.00838885,11.3185,0.00838714,752.44,317.033,2.25639
202,0.00836138,11.2808,0.00835967,752.459,317.353,2.2636
203,0.00833391,11.243,0.00833219,752.366,317.663,2.27262
204,0.00830643,11.2053,0.00830471,752.39,317.99,2.27959
205,0.00827895,11.1676,0.00827724,752.41,318.32,2.28684
206,0.00825148,11.1298,0.00824976,752.307,318.639,2.29429
207,0.00822399,11.0921,0.00822228,752.336,318.976,2.30332
208,0.00819651,11.0544,0.00819479,752.358,319.316,2.31059
209,0.00816903,11.0166,0.00816731,752.377,319.66,2.31812
210,0.00814155,10.9789,0.00813983,752.277,319.992,2.32766
211,0.00811406,10.9411,0.00811234,752.302,320.342,2.33494
212,0.00808658,10.9034,0.00808486,752.322,320.696,2.34251
213,0.00805909,10.8657,0.00805737,752.34,321.053,2.35032
214,0.0080316,10.8279,0.00802988,752.242,321.398,2.35989
215,0.00800411,10.7901,0.00800239,752.265,321.762,2.36749
216,0.00797662,10.7524,0.0079749,752.284,322.129,2.37538
217,0.00794913,10.7146,0.00794742,752.177,322.484,2.38543
218,0.00792164,10.6769,0.00791992,752.204,322.858,2.39311
219,0.00789414,10.6391,0.00789243,752.225,323.235,2.40106
220,0.00786665,10.6013,0.00786493,752.243,323.616,2.40927
221,0.00783916,10.5636,0.00783744,752.14,323.984,2.41939
222,0.00781165,10.5258,0.00780994,752.163,324.372,2.42741
223,0.00778416,10.488,0.00778244,752.182,324.762,2.43572
224,0.00775666,10.4502,0.00775494,752.2,325.156,2.44427
225,0.00772916,10.4124,0.00772744,752.098,325.538,2.45447
226,0.00770165,10.3746,0.00769993,752.119,325.939,2.46288
227,0.00767415,10.3368,0.00767243,752.138,326.344,2.47156
228,0.00764665,10.299,0.00764493,752.026,326.735,2.4823
229,0.00761913,10.2612,0.00761742,752.053,327.147,2.49082
230,0.00759163,10.2234,0.00758991,752.073,327.561,2.49961
231,0.00756412,10.1856,0.0075624,752.091,327.979,2.50867
232,0.0075366,10.1478,0.00753488,751.983,328.384,2.51954
233,0.00750909,10.1099,0.00750737,752.006,328.808,2.52846
234,0.00748157,10.0721,0.00747985,752.025,329.236,2.53766
235,0.00745405,10.0343,0.00745233,752.043,329.667,2.54711
236,0.00742653,9.99643,0.00742481,751.936,330.085,2.55815
237,0.007399,9.95858,0.00739728,751.957,330.523,2.56751
238,0.00737148,9.92072,0.00736976,751.976,330.964,2.57714
239,0.00734395,9.88286,0.00734223,751.862,331.392,2.58869
240,0.00731642,9.84499,0.0073147,751.887,331.839,2.59824
241,0.00728888,9.80711,0.00728716,751.907,332.29,2.60806
242,0.00726135,9.76923,0.00725962,751.926,332.744,2.61814
243,0.0072338,9.73133,0.00723208,751.814,333.184,2.6299
244,0.00720626,9.69343,0.00720454,751.837,333.644,2.63992
245,0.00717871,9.65552,0.00717699,751.856,334.108,2.65022
246,0.00715116,9.61761,0.00714944,751.734,334.557,2.66077
247,0.0071236,9.57967,0.00712188,751.764,335.027,2.67277
248,0.00709604,9.54173,0.00709432,751.785,335.499,2.6833
249,0.00706848,9.50379,0.00706676,751.804,335.974,2.69409
250,0.00704091,9.46584,0.00703919,751.687,336.435,2.70663
251,0.00701334,9.42786,0.00701161,751.712,336.917,2.71742
252,0.00698576,9.38989,0.00698404,751.733,337.401,2.72847
253,0.00695818,9.3519,0.00695646,751.752,337.888,2.73979
254,0.00693059,9.3139,0.00692887,751.637,338.361,2.75261
255,0.006903,9.27588,0.00690127,751.66,338.853,2.76394
256,0.0068754,9.23786,0.00687368,751.68,339.348,2.77554
257,0.0068478,9.19983,0.00684607,751.556,339.828,2.78886
258,0.00682019,9.16177,0.00681846,751.585,340.329,2.80054
259,0.00679257,9.12371,0.00679085,751.607,340.833,2.81244
260,0.00676495,9.08564,0.00676323,751.627,341.338,2.82461
261,0.00673732,9.04755,0.0067356,751.507,341.829,2.83829
262,0.00670969,9.00944,0.00670796,751.533,342.339,2.85052
263,0.00668205,8.97133,0.00668032,751.554,342.852,2.86301
264,0.0066544,8.9332,0.00665267,751.574,343.367,2.87576
265,0.00662675,8.89505,0.00662502,751.456,343.867,2.88979
266,0.00659908,8.85689,0.00659735,751.48,344.387,2.90262
267,0.00657141,8.81871,0.00656969,751.501,344.909,2.91571
268,0.00654374,8.78053,0.00654201,751.374,345.415,2.93023
269,0.00651605,8.74231,0.00651432,751.404,345.942,2.94346
270,0.00648836,8.70408,0.00648663,751.427,346.47,2.95689
271,0.00646066,8.66585,0.00645893,751.448,347,2.97059
272,0.00643295,8.62759,0.00643122,751.325,347.515,2.98551
273,0.00640524,8.58931,0.0064035,751.352,348.049,2.99933
274,0.00637751,8.55103,0.00637578,751.375,348.585,3.01338
275,0.00634978,8.51272,0.00634804,751.241,349.105,3.02864
276,0.00632204,8.4744,0.0063203,751.275,349.646,3.04296
277,0.00629429,8.43605,0.00629255,751.301,350.188,3.05738
278,0.00626653,8.3977,0.00626479,751.323,350.731,3.07205
279,0.00623876,8.35933,0.00623702,751.195,351.259,3.08776
280,0.00621098,8.32093,0.00620925,751.224,351.807,3.10261
281,0.0061832,8.28253,0.00618146,751.25,352.356,3.11764
282,0.00615541,8.2441,0.00615367,751.273,352.907,3.13289
283,0.00612761,8.20566,0.00612587,751.146,353.443,3.14897
284,0.0060998,8.16721,0.00609806,751.175,353.998,3.16438
285,0.00607198,8.12874,0.00607024,751.2,354.555,3.17998
286,0.00604415,8.09025,0.00604241,751.065,355.096,3.19634
287,0.00601632,8.05175,0.00601458,751.098,355.659,3.21219
288,0.00598847,8.01323,0.00598673,751.126,356.223,3.22812
289,0.00596062,7.9747,0.00595888,751.151,356.789,3.24424
290,0.00593277,7.93616,0.00593103,751.019,357.34,3.26095
291,0.0059049,7.89759,0.00590316,751.051,357.912,3.27725
292,0.00587703,7.85903,0.00587529,751.078,358.487,3.29368
293,0.00584915,7.82045,0.00584741,750.935,359.046,3.3104
294,0.00582127,7.78186,0.00581952,750.974,359.628,3.32722
295,0.00579338,7.74326,0.00579163,751.004,360.213,3.34395
296,0.00576548,7.70465,0.00576374,751.031,360.801,3.3608
297,0.00573758,7.66603,0.00573583,750.895,361.375,3.37785
298,0.00570967,7.6274,0.00570793,750.93,361.973,3.39492
299,0.00568176,7.58878,0.00568002,750.959,362.574,3.41201
300,0.00565385,7.55014,0.0056521,750.986,363.18,3.4292
301,0.00562593,7.5115,0.00562419,750.853,363.775,3.44641
302,0.00559801,7.47286,0.00559627,750.886,364.394,3.46374
303,0.00557009,7.43422,0.00556834,750.915,365.018,3.48109
304,0.00554217,7.39558,0.00554042,750.773,365.631,3.49815
305,0.00551424,7.35695,0.0055125,750.812,366.27,3.51576
306,0.00548632,7.31832,0.00548458,750.844,366.917,3.53326
307,0.0054584,7.27969,0.00545665,750.874,367.572,3.55075
308,0.00543048,7.24108,0.00542873,750.736,368.22,3.56782
309,0.00540256,7.20247,0.00540082,750.772,368.895,3.58545
310,0.00537465,7.16388,0.0053729,750.804,369.58,3.60298
311,0.00534674,7.12529,0.00534499,750.655,370.258,3.61948
312,0.00531884,7.08673,0.00531709,750.699,370.97,3.63735
313,0.00529094,7.04819,0.0052892,750.734,371.693,3.65487
314,0.00526305,7.00967,0.00526131,750.767,372.43,3.67226
315,0.00523517,6.97117,0.00523343,750.624,373.167,3.68859
316,0.0052073,6.9327,0.00520556,750.664,373.938,3.70604
317,0.00517945,6.89425,0.00517771,750.699,374.725,3.7232
318,0.0051516,6.85584,0.00514986,750.543,375.514,3.74016
319,0.00512378,6.81748,0.00512204,750.594,376.345,3.75594
320,0.00509596,6.77915,0.00509423,750.633,377.197,3.77275
321,0.00506817,6.74086,0.00506643,750.669,378.071,3.78921
322,0.00504039,6.70262,0.00503866,750.521,378.957,3.80378
323,0.00501264,6.66443,0.00501091,750.566,379.888,3.82015
324,0.00498491,6.6263,0.00498318,750.606,380.849,3.8359
325,0.00495721,6.58823,0.00495548,750.643,381.84,3.85117
326,0.00492954,6.55023,0.00492781,750.5,382.856,3.86439
327,0.0049019,6.51231,0.00490017,750.544,383.925,3.87912
328,0.00487429,6.47445,0.00487256,750.585,385.033,3.8931
329,0.00484671,6.43669,0.00484499,750.431,386.17,3.90395
330,0.00481919,6.39903,0.00481747,750.485,387.378,3.91742
331,0.00479171,6.36146,0.00478999,750.53,388.636,3.92965
332,0.00476426,6.32399,0.00476255,750.573,389.95,3.94091
333,0.00473688,6.28665,0.00473517,750.427,391.314,3.94895
334,0.00470955,6.24943,0.00470785,750.479,392.763,3.95895
335,0.00468228,6.21235,0.00468058,750.527,394.283,3.9676
336,0.00465507,6.1754,0.00465337,750.573,395.882,3.97504
337,0.00462794,6.13863,0.00462625,750.434,397.558,3.97925
338,0.00460088,6.10202,0.0045992,750.488,399.339,3.98507
339,0.0045739,6.06558,0.00457221,750.539,401.217,3.98969
340,0.00454699,6.02931,0.00454531,750.39,403.182,3.99024
341,0.00452018,5.99325,0.0045185,750.457,405.278,3.99459
342,0.00449344,5.95736,0.00449177,750.516,407.48,3.99836
343,0.00446678,5.92165,0.00446512,750.573,409.789,4.00257
344,0.0044402,5.88612,0.00443854,750.434,412.185,4.00529
345,0.00441369,5.85075,0.00441204,750.505,414.694,4.01427
346,0.00438723,5.81551,0.00438557,750.572,417.276,4.02623
347,0.00436079,5.78035,0.00435914,750.639,419.915,4.04223
348,0.00433438,5.74527,0.00433273,750.511,422.57,4.06017
349,0.00430797,5.7102,0.00430631,750.591,425.258,4.08622
350,0.00428152,5.67511,0.00427986,750.67,427.941,4.11599
351,0.00425503,5.63997,0.00425337,750.749,430.611,4.14886
352,0.00422849,5.60478,0.00422683,750.634,433.247,4.18159
353,0.00420189,5.5695,0.00420023,750.729,435.889,4.21951
